# Temperatura_=_2.6961956521739134
# Concentracion g/m^3_=_11700.0
# C_Vs_to_Am_M_A/Vsm_=_254322799225.57578
# pendiente_HvsI_1/m_=_3716.3
# ordenada_HvsI_A/m_=_1297.0
# frecuencia_Hz_=_136185.1257677647
# Promedio de 552 ciclos

Tiempo_(s)	Campo_(V.s)	Magnetizacion_(V.s)	Campo_(kA/m)	Magnetizacion_(A/m)
0.000000e+00	-7.154380e-09	-8.128268e-10	-3.839480e+01	-2.073121e+02
1.000000e-08	-7.154364e-09	-8.128711e-10	-3.839471e+01	-2.072965e+02
2.000000e-08	-7.153836e-09	-8.136169e-10	-3.839188e+01	-2.072693e+02
3.000000e-08	-7.152712e-09	-8.136504e-10	-3.838585e+01	-2.072323e+02
4.000000e-08	-7.151106e-09	-8.128501e-10	-3.837723e+01	-2.071877e+02
5.000000e-08	-7.149062e-09	-8.125288e-10	-3.836626e+01	-2.071372e+02
6.000000e-08	-7.146525e-09	-8.129037e-10	-3.835264e+01	-2.070819e+02
7.000000e-08	-7.143537e-09	-8.134728e-10	-3.833661e+01	-2.070229e+02
8.000000e-08	-7.140077e-09	-8.147296e-10	-3.831804e+01	-2.069607e+02
9.000000e-08	-7.135876e-09	-8.143157e-10	-3.829549e+01	-2.068954e+02
1.000000e-07	-7.130646e-09	-8.064791e-10	-3.826743e+01	-2.068269e+02
1.100000e-07	-7.124386e-09	-7.992363e-10	-3.823383e+01	-2.067546e+02
1.200000e-07	-7.117675e-09	-8.076833e-10	-3.819782e+01	-2.066782e+02
1.300000e-07	-7.111015e-09	-8.193260e-10	-3.816208e+01	-2.065970e+02
1.400000e-07	-7.104056e-09	-8.128757e-10	-3.812473e+01	-2.065107e+02
1.500000e-07	-7.096373e-09	-8.022865e-10	-3.808350e+01	-2.064190e+02
1.600000e-07	-7.088122e-09	-8.090690e-10	-3.803922e+01	-2.063218e+02
1.700000e-07	-7.079683e-09	-8.198261e-10	-3.799393e+01	-2.062194e+02
1.800000e-07	-7.070857e-09	-8.143704e-10	-3.794656e+01	-2.061123e+02
1.900000e-07	-7.061280e-09	-8.066174e-10	-3.789516e+01	-2.060011e+02
2.000000e-07	-7.051132e-09	-8.132488e-10	-3.784071e+01	-2.058865e+02
2.100000e-07	-7.040746e-09	-8.176644e-10	-3.778497e+01	-2.057694e+02
2.200000e-07	-7.029914e-09	-8.094611e-10	-3.772684e+01	-2.056504e+02
2.300000e-07	-7.018316e-09	-8.099410e-10	-3.766460e+01	-2.055303e+02
2.400000e-07	-7.006219e-09	-8.202583e-10	-3.759967e+01	-2.054093e+02
2.500000e-07	-6.993767e-09	-8.144888e-10	-3.753285e+01	-2.052878e+02
2.600000e-07	-6.980689e-09	-8.008534e-10	-3.746267e+01	-2.051656e+02
2.700000e-07	-6.966917e-09	-8.088842e-10	-3.738875e+01	-2.050423e+02
2.800000e-07	-6.952736e-09	-8.230590e-10	-3.731265e+01	-2.049177e+02
2.900000e-07	-6.938124e-09	-8.178379e-10	-3.723424e+01	-2.047912e+02
3.000000e-07	-6.922923e-09	-8.148990e-10	-3.715266e+01	-2.046621e+02
3.100000e-07	-6.907264e-09	-8.227982e-10	-3.706862e+01	-2.045302e+02
3.200000e-07	-6.891227e-09	-8.152983e-10	-3.698256e+01	-2.043949e+02
3.300000e-07	-6.874558e-09	-8.004619e-10	-3.689310e+01	-2.042563e+02
3.400000e-07	-6.857269e-09	-8.049238e-10	-3.680031e+01	-2.041144e+02
3.500000e-07	-6.839612e-09	-8.124954e-10	-3.670556e+01	-2.039694e+02
3.600000e-07	-6.821527e-09	-8.058887e-10	-3.660850e+01	-2.038215e+02
3.700000e-07	-6.802872e-09	-8.065252e-10	-3.650839e+01	-2.036711e+02
3.800000e-07	-6.783729e-09	-8.159119e-10	-3.640566e+01	-2.035181e+02
3.900000e-07	-6.764015e-09	-8.078386e-10	-3.629986e+01	-2.033624e+02
4.000000e-07	-6.743536e-09	-7.952493e-10	-3.618996e+01	-2.032030e+02
4.100000e-07	-6.722434e-09	-8.004662e-10	-3.607671e+01	-2.030386e+02
4.200000e-07	-6.700905e-09	-8.018933e-10	-3.596117e+01	-2.028670e+02
4.300000e-07	-6.678944e-09	-7.934859e-10	-3.584331e+01	-2.026850e+02
4.400000e-07	-6.656537e-09	-7.999864e-10	-3.572307e+01	-2.024888e+02
4.500000e-07	-6.633668e-09	-8.080900e-10	-3.560034e+01	-2.022738e+02
4.600000e-07	-6.610225e-09	-8.006682e-10	-3.547453e+01	-2.020347e+02
4.700000e-07	-6.586256e-09	-8.000603e-10	-3.534589e+01	-2.017659e+02
4.800000e-07	-6.561868e-09	-8.059616e-10	-3.521501e+01	-2.014617e+02
4.900000e-07	-6.537055e-09	-7.967007e-10	-3.508185e+01	-2.011164e+02
5.000000e-07	-6.511787e-09	-7.889697e-10	-3.494625e+01	-2.007249e+02
5.100000e-07	-6.486088e-09	-7.939787e-10	-3.480833e+01	-2.002829e+02
5.200000e-07	-6.459860e-09	-7.892613e-10	-3.466758e+01	-1.997869e+02
5.300000e-07	-6.433039e-09	-7.799402e-10	-3.452364e+01	-1.992350e+02
5.400000e-07	-6.405740e-09	-7.818958e-10	-3.437713e+01	-1.986264e+02
5.500000e-07	-6.378028e-09	-7.788032e-10	-3.422841e+01	-1.979619e+02
5.600000e-07	-6.349854e-09	-7.689661e-10	-3.407721e+01	-1.972437e+02
5.700000e-07	-6.321248e-09	-7.688020e-10	-3.392370e+01	-1.964751e+02
5.800000e-07	-6.292232e-09	-7.681397e-10	-3.376798e+01	-1.956607e+02
5.900000e-07	-6.262716e-09	-7.613416e-10	-3.360958e+01	-1.948056e+02
6.000000e-07	-6.232657e-09	-7.598837e-10	-3.344827e+01	-1.939156e+02
6.100000e-07	-6.202104e-09	-7.586580e-10	-3.328430e+01	-1.929966e+02
6.200000e-07	-6.171059e-09	-7.521290e-10	-3.311769e+01	-1.920541e+02
6.300000e-07	-6.139486e-09	-7.489394e-10	-3.294825e+01	-1.910932e+02
6.400000e-07	-6.107378e-09	-7.462919e-10	-3.277594e+01	-1.901182e+02
6.500000e-07	-6.074789e-09	-7.401088e-10	-3.260105e+01	-1.891324e+02
6.600000e-07	-6.041795e-09	-7.368451e-10	-3.242398e+01	-1.881382e+02
6.700000e-07	-6.008423e-09	-7.349339e-10	-3.224489e+01	-1.871366e+02
6.800000e-07	-5.974669e-09	-7.302196e-10	-3.206374e+01	-1.861280e+02
6.900000e-07	-5.940509e-09	-7.269478e-10	-3.188042e+01	-1.851115e+02
7.000000e-07	-5.905946e-09	-7.241947e-10	-3.169493e+01	-1.840858e+02
7.100000e-07	-5.871005e-09	-7.186581e-10	-3.150741e+01	-1.830491e+02
7.200000e-07	-5.835690e-09	-7.143420e-10	-3.131789e+01	-1.819993e+02
7.300000e-07	-5.799949e-09	-7.117097e-10	-3.112609e+01	-1.809345e+02
7.400000e-07	-5.763738e-09	-7.068743e-10	-3.093176e+01	-1.798528e+02
7.500000e-07	-5.727093e-09	-7.014360e-10	-3.073510e+01	-1.787531e+02
7.600000e-07	-5.690064e-09	-6.975185e-10	-3.053638e+01	-1.776344e+02
7.700000e-07	-5.652635e-09	-6.935373e-10	-3.033551e+01	-1.764968e+02
7.800000e-07	-5.614793e-09	-6.893715e-10	-3.013242e+01	-1.753405e+02
7.900000e-07	-5.576551e-09	-6.852978e-10	-2.992720e+01	-1.741665e+02
8.000000e-07	-5.537891e-09	-6.810688e-10	-2.971972e+01	-1.729762e+02
8.100000e-07	-5.498756e-09	-6.768260e-10	-2.950970e+01	-1.717711e+02
8.200000e-07	-5.459155e-09	-6.723364e-10	-2.929718e+01	-1.705531e+02
8.300000e-07	-5.419158e-09	-6.674180e-10	-2.908253e+01	-1.693238e+02
8.400000e-07	-5.378792e-09	-6.624412e-10	-2.886590e+01	-1.680847e+02
8.500000e-07	-5.338056e-09	-6.568334e-10	-2.864728e+01	-1.668370e+02
8.600000e-07	-5.296969e-09	-6.513798e-10	-2.842679e+01	-1.655815e+02
8.700000e-07	-5.255560e-09	-6.473332e-10	-2.820456e+01	-1.643186e+02
8.800000e-07	-5.213808e-09	-6.435328e-10	-2.798049e+01	-1.630483e+02
8.900000e-07	-5.171637e-09	-6.388156e-10	-2.775418e+01	-1.617703e+02
9.000000e-07	-5.129027e-09	-6.340775e-10	-2.752551e+01	-1.604839e+02
9.100000e-07	-5.086020e-09	-6.291688e-10	-2.729471e+01	-1.591884e+02
9.200000e-07	-5.042644e-09	-6.231962e-10	-2.706192e+01	-1.578828e+02
9.300000e-07	-4.998900e-09	-6.170388e-10	-2.682716e+01	-1.565664e+02
9.400000e-07	-4.954799e-09	-6.118303e-10	-2.659049e+01	-1.552385e+02
9.500000e-07	-4.910357e-09	-6.069881e-10	-2.635199e+01	-1.538987e+02
9.600000e-07	-4.865591e-09	-6.022108e-10	-2.611175e+01	-1.525467e+02
9.700000e-07	-4.820476e-09	-5.977015e-10	-2.586963e+01	-1.511826e+02
9.800000e-07	-4.774925e-09	-5.929936e-10	-2.562518e+01	-1.498066e+02
9.900000e-07	-4.728900e-09	-5.877277e-10	-2.537818e+01	-1.484193e+02
1.000000e-06	-4.682487e-09	-5.822668e-10	-2.512910e+01	-1.470211e+02
1.010000e-06	-4.635776e-09	-5.767797e-10	-2.487842e+01	-1.456129e+02
1.020000e-06	-4.588759e-09	-5.707805e-10	-2.462609e+01	-1.441953e+02
1.030000e-06	-4.541414e-09	-5.646917e-10	-2.437201e+01	-1.427687e+02
1.040000e-06	-4.493760e-09	-5.594127e-10	-2.411627e+01	-1.413336e+02
1.050000e-06	-4.445796e-09	-5.546024e-10	-2.385887e+01	-1.398901e+02
1.060000e-06	-4.397491e-09	-5.493724e-10	-2.359964e+01	-1.384385e+02
1.070000e-06	-4.348818e-09	-5.436876e-10	-2.333842e+01	-1.369783e+02
1.080000e-06	-4.299761e-09	-5.377121e-10	-2.307515e+01	-1.355095e+02
1.090000e-06	-4.250346e-09	-5.317557e-10	-2.280996e+01	-1.340316e+02
1.100000e-06	-4.200636e-09	-5.260511e-10	-2.254319e+01	-1.325442e+02
1.110000e-06	-4.150676e-09	-5.203163e-10	-2.227507e+01	-1.310469e+02
1.120000e-06	-4.100452e-09	-5.141534e-10	-2.200554e+01	-1.295394e+02
1.130000e-06	-4.049948e-09	-5.079022e-10	-2.173450e+01	-1.280216e+02
1.140000e-06	-3.999181e-09	-5.019830e-10	-2.146206e+01	-1.264933e+02
1.150000e-06	-3.948171e-09	-4.962330e-10	-2.118830e+01	-1.249549e+02
1.160000e-06	-3.896898e-09	-4.901656e-10	-2.091314e+01	-1.234067e+02
1.170000e-06	-3.845326e-09	-4.838653e-10	-2.063638e+01	-1.218491e+02
1.180000e-06	-3.793430e-09	-4.778632e-10	-2.035787e+01	-1.202827e+02
1.190000e-06	-3.741206e-09	-4.722333e-10	-2.007760e+01	-1.187083e+02
1.200000e-06	-3.688675e-09	-4.664161e-10	-1.979569e+01	-1.171264e+02
1.210000e-06	-3.635874e-09	-4.597585e-10	-1.951233e+01	-1.155377e+02
1.220000e-06	-3.582830e-09	-4.526524e-10	-1.922766e+01	-1.139426e+02
1.230000e-06	-3.529550e-09	-4.460975e-10	-1.894173e+01	-1.123415e+02
1.240000e-06	-3.476030e-09	-4.401880e-10	-1.865451e+01	-1.107347e+02
1.250000e-06	-3.422277e-09	-4.343205e-10	-1.836604e+01	-1.091222e+02
1.260000e-06	-3.368304e-09	-4.281068e-10	-1.807638e+01	-1.075039e+02
1.270000e-06	-3.314102e-09	-4.215641e-10	-1.778550e+01	-1.058797e+02
1.280000e-06	-3.259655e-09	-4.151722e-10	-1.749330e+01	-1.042492e+02
1.290000e-06	-3.204967e-09	-4.090444e-10	-1.719982e+01	-1.026123e+02
1.300000e-06	-3.150043e-09	-4.025691e-10	-1.690506e+01	-1.009686e+02
1.310000e-06	-3.094854e-09	-3.957226e-10	-1.660888e+01	-9.931799e+01
1.320000e-06	-3.039369e-09	-3.890855e-10	-1.631112e+01	-9.766022e+01
1.330000e-06	-2.983592e-09	-3.825806e-10	-1.601178e+01	-9.599529e+01
1.340000e-06	-2.927559e-09	-3.760707e-10	-1.571107e+01	-9.432327e+01
1.350000e-06	-2.871292e-09	-3.698063e-10	-1.540911e+01	-9.264431e+01
1.360000e-06	-2.814801e-09	-3.635003e-10	-1.510595e+01	-9.095865e+01
1.370000e-06	-2.758089e-09	-3.569466e-10	-1.480160e+01	-8.926657e+01
1.380000e-06	-2.701158e-09	-3.506225e-10	-1.449607e+01	-8.756838e+01
1.390000e-06	-2.644017e-09	-3.445781e-10	-1.418942e+01	-8.586436e+01
1.400000e-06	-2.586683e-09	-3.382158e-10	-1.388173e+01	-8.415475e+01
1.410000e-06	-2.529153e-09	-3.311528e-10	-1.357299e+01	-8.243970e+01
1.420000e-06	-2.471422e-09	-3.236813e-10	-1.326317e+01	-8.071930e+01
1.430000e-06	-2.413500e-09	-3.163422e-10	-1.295232e+01	-7.899354e+01
1.440000e-06	-2.355407e-09	-3.095181e-10	-1.264056e+01	-7.726232e+01
1.450000e-06	-2.297155e-09	-3.032504e-10	-1.232794e+01	-7.552546e+01
1.460000e-06	-2.238748e-09	-2.970745e-10	-1.201449e+01	-7.378276e+01
1.470000e-06	-2.180185e-09	-2.905912e-10	-1.170021e+01	-7.203397e+01
1.480000e-06	-2.121468e-09	-2.839658e-10	-1.138510e+01	-7.027888e+01
1.490000e-06	-2.062604e-09	-2.772558e-10	-1.106919e+01	-6.851731e+01
1.500000e-06	-2.003604e-09	-2.700037e-10	-1.075257e+01	-6.674912e+01
1.510000e-06	-1.944483e-09	-2.625576e-10	-1.043528e+01	-6.497429e+01
1.520000e-06	-1.885251e-09	-2.556017e-10	-1.011741e+01	-6.319287e+01
1.530000e-06	-1.825920e-09	-2.489881e-10	-9.799001e+00	-6.140500e+01
1.540000e-06	-1.766495e-09	-2.424376e-10	-9.480091e+00	-5.961093e+01
1.550000e-06	-1.706975e-09	-2.358371e-10	-9.160671e+00	-5.781096e+01
1.560000e-06	-1.647354e-09	-2.290100e-10	-8.840708e+00	-5.600548e+01
1.570000e-06	-1.587626e-09	-2.217940e-10	-8.520171e+00	-5.419491e+01
1.580000e-06	-1.527785e-09	-2.143849e-10	-8.199026e+00	-5.237971e+01
1.590000e-06	-1.467825e-09	-2.070233e-10	-7.877244e+00	-5.056036e+01
1.600000e-06	-1.407746e-09	-1.996905e-10	-7.554822e+00	-4.873735e+01
1.610000e-06	-1.347552e-09	-1.925125e-10	-7.231786e+00	-4.691115e+01
1.620000e-06	-1.287245e-09	-1.855798e-10	-6.908140e+00	-4.508226e+01
1.630000e-06	-1.226828e-09	-1.784955e-10	-6.583907e+00	-4.325115e+01
1.640000e-06	-1.166317e-09	-1.710924e-10	-6.259168e+00	-4.141830e+01
1.650000e-06	-1.105732e-09	-1.637802e-10	-5.934029e+00	-3.958417e+01
1.660000e-06	-1.045083e-09	-1.566485e-10	-5.608553e+00	-3.774926e+01
1.670000e-06	-9.843743e-10	-1.493519e-10	-5.282751e+00	-3.591400e+01
1.680000e-06	-9.236052e-10	-1.420650e-10	-4.956626e+00	-3.407884e+01
1.690000e-06	-8.627744e-10	-1.352111e-10	-4.630171e+00	-3.224419e+01
1.700000e-06	-8.018777e-10	-1.284160e-10	-4.303362e+00	-3.041041e+01
1.710000e-06	-7.409113e-10	-1.211564e-10	-3.976179e+00	-2.857778e+01
1.720000e-06	-6.798723e-10	-1.136991e-10	-3.648607e+00	-2.674651e+01
1.730000e-06	-6.187612e-10	-1.062721e-10	-3.320647e+00	-2.491671e+01
1.740000e-06	-5.575863e-10	-9.872240e-11	-2.992346e+00	-2.308836e+01
1.750000e-06	-4.963565e-10	-9.128953e-11	-2.663749e+00	-2.126136e+01
1.760000e-06	-4.350757e-10	-8.423097e-11	-2.334879e+00	-1.943549e+01
1.770000e-06	-3.737515e-10	-7.722785e-11	-2.005777e+00	-1.761043e+01
1.780000e-06	-3.123973e-10	-7.002045e-11	-1.676513e+00	-1.578582e+01
1.790000e-06	-2.510290e-10	-6.292981e-11	-1.347174e+00	-1.396126e+01
1.800000e-06	-1.896607e-10	-5.612572e-11	-1.017834e+00	-1.213635e+01
1.810000e-06	-1.283015e-10	-4.921352e-11	-6.885438e-01	-1.031075e+01
1.820000e-06	-6.695284e-11	-4.194666e-11	-3.593096e-01	-8.484206e+00
1.830000e-06	-5.610140e-12	-3.441925e-11	-3.010758e-02	-6.656564e+00
1.840000e-06	5.573181e-11	-2.703150e-11	2.990904e-01	-4.827821e+00
1.850000e-06	1.170761e-10	-2.008759e-11	6.283011e-01	-2.998122e+00
1.860000e-06	1.784225e-10	-1.336152e-11	9.575232e-01	-1.167755e+00
1.870000e-06	2.397687e-10	-6.506345e-12	1.286744e+00	6.628607e-01
1.880000e-06	3.011068e-10	8.322102e-13	1.615921e+00	2.493206e+00
1.890000e-06	3.624273e-10	8.617182e-12	1.945004e+00	4.322701e+00
1.900000e-06	4.237226e-10	1.605423e-11	2.273952e+00	6.150750e+00
1.910000e-06	4.849829e-10	2.285789e-11	2.602712e+00	7.976792e+00
1.920000e-06	5.461978e-10	2.964849e-11	2.931228e+00	9.800341e+00
1.930000e-06	6.073526e-10	3.684543e-11	3.259422e+00	1.162103e+01
1.940000e-06	6.684337e-10	4.411725e-11	3.587220e+00	1.343863e+01
1.950000e-06	7.294329e-10	5.102486e-11	3.914578e+00	1.525308e+01
1.960000e-06	7.903480e-10	5.782836e-11	4.241486e+00	1.706447e+01
1.970000e-06	8.511858e-10	6.497304e-11	4.567979e+00	1.887301e+01
1.980000e-06	9.119540e-10	7.230138e-11	4.894098e+00	2.067904e+01
1.990000e-06	9.726570e-10	7.931398e-11	5.219868e+00	2.248298e+01
2.000000e-06	1.033296e-09	8.608371e-11	5.545294e+00	2.428523e+01
2.010000e-06	1.093867e-09	9.292488e-11	5.870356e+00	2.608620e+01
2.020000e-06	1.154364e-09	9.977699e-11	6.195017e+00	2.788622e+01
2.030000e-06	1.214778e-09	1.068510e-10	6.519238e+00	2.968551e+01
2.040000e-06	1.275102e-09	1.141151e-10	6.842974e+00	3.148417e+01
2.050000e-06	1.335328e-09	1.210992e-10	7.166183e+00	3.328216e+01
2.060000e-06	1.395446e-09	1.279299e-10	7.488813e+00	3.507930e+01
2.070000e-06	1.455450e-09	1.348744e-10	7.810830e+00	3.687531e+01
2.080000e-06	1.515334e-09	1.416500e-10	8.132204e+00	3.866982e+01
2.090000e-06	1.575096e-09	1.482146e-10	8.452927e+00	4.046242e+01
2.100000e-06	1.634744e-09	1.549802e-10	8.773034e+00	4.225271e+01
2.110000e-06	1.694286e-09	1.619600e-10	9.092573e+00	4.404031e+01
2.120000e-06	1.753731e-09	1.690161e-10	9.411593e+00	4.582494e+01
2.130000e-06	1.813084e-09	1.762672e-10	9.730115e+00	4.760640e+01
2.140000e-06	1.872339e-09	1.833920e-10	1.004812e+01	4.938461e+01
2.150000e-06	1.931487e-09	1.901559e-10	1.036554e+01	5.115956e+01
2.160000e-06	1.990517e-09	1.970703e-10	1.068233e+01	5.293136e+01
2.170000e-06	2.049413e-09	2.041187e-10	1.099841e+01	5.470014e+01
2.180000e-06	2.108168e-09	2.107118e-10	1.131372e+01	5.646604e+01
2.190000e-06	2.166772e-09	2.170156e-10	1.162823e+01	5.822918e+01
2.200000e-06	2.225218e-09	2.237244e-10	1.194188e+01	5.998956e+01
2.210000e-06	2.283498e-09	2.309611e-10	1.225465e+01	6.174709e+01
2.220000e-06	2.341602e-09	2.383502e-10	1.256647e+01	6.350150e+01
2.230000e-06	2.399517e-09	2.451287e-10	1.287728e+01	6.525236e+01
2.240000e-06	2.457234e-09	2.514783e-10	1.318702e+01	6.699910e+01
2.250000e-06	2.514756e-09	2.582719e-10	1.349572e+01	6.874098e+01
2.260000e-06	2.572090e-09	2.653038e-10	1.380341e+01	7.047719e+01
2.270000e-06	2.629238e-09	2.721502e-10	1.411010e+01	7.220683e+01
2.280000e-06	2.686197e-09	2.787600e-10	1.441578e+01	7.392902e+01
2.290000e-06	2.742959e-09	2.850895e-10	1.472040e+01	7.564296e+01
2.300000e-06	2.799518e-09	2.917594e-10	1.502393e+01	7.734792e+01
2.310000e-06	2.855872e-09	2.993295e-10	1.532636e+01	7.904338e+01
2.320000e-06	2.912018e-09	3.064983e-10	1.562767e+01	8.072898e+01
2.330000e-06	2.967934e-09	3.122558e-10	1.592775e+01	8.240456e+01
2.340000e-06	3.023595e-09	3.178304e-10	1.622647e+01	8.407018e+01
2.350000e-06	3.078980e-09	3.244688e-10	1.652369e+01	8.572608e+01
2.360000e-06	3.134083e-09	3.316107e-10	1.681941e+01	8.737259e+01
2.370000e-06	3.188913e-09	3.382228e-10	1.711366e+01	8.901017e+01
2.380000e-06	3.243483e-09	3.442054e-10	1.740652e+01	9.063928e+01
2.390000e-06	3.297806e-09	3.503915e-10	1.769805e+01	9.226033e+01
2.400000e-06	3.351897e-09	3.573056e-10	1.798833e+01	9.387367e+01
2.410000e-06	3.405763e-09	3.642413e-10	1.827741e+01	9.547947e+01
2.420000e-06	3.459401e-09	3.705488e-10	1.856527e+01	9.707776e+01
2.430000e-06	3.512803e-09	3.763065e-10	1.885185e+01	9.866841e+01
2.440000e-06	3.565972e-09	3.820614e-10	1.913719e+01	1.002511e+02
2.450000e-06	3.618912e-09	3.882751e-10	1.942130e+01	1.018253e+02
2.460000e-06	3.671612e-09	3.947161e-10	1.970412e+01	1.033906e+02
2.470000e-06	3.724038e-09	4.009836e-10	1.998547e+01	1.049463e+02
2.480000e-06	3.776155e-09	4.068246e-10	2.026516e+01	1.064918e+02
2.490000e-06	3.827946e-09	4.125891e-10	2.054310e+01	1.080267e+02
2.500000e-06	3.879423e-09	4.189101e-10	2.081936e+01	1.095506e+02
2.510000e-06	3.930604e-09	4.253903e-10	2.109403e+01	1.110632e+02
2.520000e-06	3.981509e-09	4.310746e-10	2.136722e+01	1.125645e+02
2.530000e-06	4.032153e-09	4.360380e-10	2.163901e+01	1.140547e+02
2.540000e-06	4.082535e-09	4.413842e-10	2.190938e+01	1.155342e+02
2.550000e-06	4.132650e-09	4.474088e-10	2.217834e+01	1.170033e+02
2.560000e-06	4.182514e-09	4.535939e-10	2.244593e+01	1.184627e+02
2.570000e-06	4.232130e-09	4.596853e-10	2.271221e+01	1.199130e+02
2.580000e-06	4.281473e-09	4.656201e-10	2.297701e+01	1.213549e+02
2.590000e-06	4.330484e-09	4.713326e-10	2.324003e+01	1.227889e+02
2.600000e-06	4.379121e-09	4.767907e-10	2.350105e+01	1.242154e+02
2.610000e-06	4.427382e-09	4.820800e-10	2.376005e+01	1.256349e+02
2.620000e-06	4.475291e-09	4.872350e-10	2.401716e+01	1.270473e+02
2.630000e-06	4.522878e-09	4.922864e-10	2.427254e+01	1.284527e+02
2.640000e-06	4.570159e-09	4.976324e-10	2.452628e+01	1.298509e+02
2.650000e-06	4.617123e-09	5.036931e-10	2.477832e+01	1.312417e+02
2.660000e-06	4.663762e-09	5.098702e-10	2.502861e+01	1.326244e+02
2.670000e-06	4.710052e-09	5.151492e-10	2.527703e+01	1.339988e+02
2.680000e-06	4.755946e-09	5.198393e-10	2.552332e+01	1.353643e+02
2.690000e-06	4.801413e-09	5.247442e-10	2.576733e+01	1.367205e+02
2.700000e-06	4.846475e-09	5.299872e-10	2.600916e+01	1.380669e+02
2.710000e-06	4.891173e-09	5.354370e-10	2.624903e+01	1.394033e+02
2.720000e-06	4.935536e-09	5.407468e-10	2.648712e+01	1.407295e+02
2.730000e-06	4.979567e-09	5.454778e-10	2.672341e+01	1.420453e+02
2.740000e-06	5.023258e-09	5.500262e-10	2.695788e+01	1.433507e+02
2.750000e-06	5.066622e-09	5.552636e-10	2.719060e+01	1.446458e+02
2.760000e-06	5.109667e-09	5.607944e-10	2.742161e+01	1.459306e+02
2.770000e-06	5.152345e-09	5.659694e-10	2.765064e+01	1.472053e+02
2.780000e-06	5.194587e-09	5.710448e-10	2.787734e+01	1.484698e+02
2.790000e-06	5.236391e-09	5.762500e-10	2.810169e+01	1.497241e+02
2.800000e-06	5.277802e-09	5.813519e-10	2.832392e+01	1.509684e+02
2.810000e-06	5.318853e-09	5.861032e-10	2.854423e+01	1.522023e+02
2.820000e-06	5.359545e-09	5.905404e-10	2.876261e+01	1.534259e+02
2.830000e-06	5.399875e-09	5.946699e-10	2.897904e+01	1.546389e+02
2.840000e-06	5.439855e-09	5.990516e-10	2.919360e+01	1.558411e+02
2.850000e-06	5.479455e-09	6.043383e-10	2.940612e+01	1.570321e+02
2.860000e-06	5.518598e-09	6.098173e-10	2.961619e+01	1.582119e+02
2.870000e-06	5.557257e-09	6.146122e-10	2.982365e+01	1.593802e+02
2.880000e-06	5.595476e-09	6.189288e-10	3.002876e+01	1.605367e+02
2.890000e-06	5.633298e-09	6.232057e-10	3.023173e+01	1.616815e+02
2.900000e-06	5.670732e-09	6.277280e-10	3.043263e+01	1.628143e+02
