# Temperatura_=_3.725029239766081
# Concentracion g/m^3_=_11700.0
# C_Vs_to_Am_M_A/Vsm_=_254322799225.57578
# pendiente_HvsI_1/m_=_3716.3
# ordenada_HvsI_A/m_=_1297.0
# frecuencia_Hz_=_136177.85850188258
# Promedio de 855 ciclos

Tiempo_(s)	Campo_(V.s)	Magnetizacion_(V.s)	Campo_(kA/m)	Magnetizacion_(A/m)
0.000000e+00	-7.148653e-09	-1.123421e-09	-3.839664e+01	-2.829947e+02
1.000000e-08	-7.148643e-09	-1.123841e-09	-3.839659e+01	-2.829925e+02
2.000000e-08	-7.148120e-09	-1.124141e-09	-3.839378e+01	-2.829717e+02
3.000000e-08	-7.147002e-09	-1.124012e-09	-3.838777e+01	-2.829356e+02
4.000000e-08	-7.145401e-09	-1.123971e-09	-3.837917e+01	-2.828871e+02
5.000000e-08	-7.143365e-09	-1.124429e-09	-3.836823e+01	-2.828292e+02
6.000000e-08	-7.140833e-09	-1.124556e-09	-3.835464e+01	-2.827646e+02
7.000000e-08	-7.137853e-09	-1.124186e-09	-3.833863e+01	-2.826952e+02
8.000000e-08	-7.134412e-09	-1.125314e-09	-3.832015e+01	-2.826227e+02
9.000000e-08	-7.130247e-09	-1.125257e-09	-3.829778e+01	-2.825478e+02
1.000000e-07	-7.125072e-09	-1.118283e-09	-3.826998e+01	-2.824707e+02
1.100000e-07	-7.118853e-09	-1.111557e-09	-3.823658e+01	-2.823911e+02
1.200000e-07	-7.112123e-09	-1.118954e-09	-3.820043e+01	-2.823083e+02
1.300000e-07	-7.105435e-09	-1.129080e-09	-3.816451e+01	-2.822212e+02
1.400000e-07	-7.098502e-09	-1.121885e-09	-3.812727e+01	-2.821288e+02
1.500000e-07	-7.090863e-09	-1.109493e-09	-3.808624e+01	-2.820304e+02
1.600000e-07	-7.082611e-09	-1.115386e-09	-3.804192e+01	-2.819255e+02
1.700000e-07	-7.074153e-09	-1.125166e-09	-3.799649e+01	-2.818142e+02
1.800000e-07	-7.065353e-09	-1.115644e-09	-3.794922e+01	-2.816970e+02
1.900000e-07	-7.055804e-09	-1.104734e-09	-3.789793e+01	-2.815751e+02
2.000000e-07	-7.045646e-09	-1.113082e-09	-3.784337e+01	-2.814501e+02
2.100000e-07	-7.035241e-09	-1.120652e-09	-3.778749e+01	-2.813241e+02
2.200000e-07	-7.024436e-09	-1.108687e-09	-3.772945e+01	-2.811991e+02
2.300000e-07	-7.012871e-09	-1.099532e-09	-3.766733e+01	-2.810775e+02
2.400000e-07	-7.000771e-09	-1.107059e-09	-3.760234e+01	-2.809609e+02
2.500000e-07	-6.988331e-09	-1.112351e-09	-3.753552e+01	-2.808508e+02
2.600000e-07	-6.975300e-09	-1.106611e-09	-3.746553e+01	-2.807479e+02
2.700000e-07	-6.961562e-09	-1.105067e-09	-3.739174e+01	-2.806523e+02
2.800000e-07	-6.947387e-09	-1.107661e-09	-3.731561e+01	-2.805632e+02
2.900000e-07	-6.932793e-09	-1.099252e-09	-3.723722e+01	-2.804789e+02
3.000000e-07	-6.917614e-09	-1.092347e-09	-3.715569e+01	-2.803973e+02
3.100000e-07	-6.901965e-09	-1.099588e-09	-3.707163e+01	-2.803154e+02
3.200000e-07	-6.885950e-09	-1.102926e-09	-3.698562e+01	-2.802304e+02
3.300000e-07	-6.869322e-09	-1.097879e-09	-3.689630e+01	-2.801390e+02
3.400000e-07	-6.852051e-09	-1.101486e-09	-3.680354e+01	-2.800383e+02
3.500000e-07	-6.834399e-09	-1.105457e-09	-3.670873e+01	-2.799254e+02
3.600000e-07	-6.816337e-09	-1.094895e-09	-3.661171e+01	-2.797983e+02
3.700000e-07	-6.797709e-09	-1.087888e-09	-3.651166e+01	-2.796551e+02
3.800000e-07	-6.778587e-09	-1.093727e-09	-3.640895e+01	-2.794948e+02
3.900000e-07	-6.758913e-09	-1.094153e-09	-3.630328e+01	-2.793165e+02
4.000000e-07	-6.738478e-09	-1.089788e-09	-3.619352e+01	-2.791198e+02
4.100000e-07	-6.717397e-09	-1.095615e-09	-3.608029e+01	-2.789041e+02
4.200000e-07	-6.695883e-09	-1.097845e-09	-3.596473e+01	-2.786689e+02
4.300000e-07	-6.673945e-09	-1.087988e-09	-3.584690e+01	-2.784130e+02
4.400000e-07	-6.651558e-09	-1.085822e-09	-3.572665e+01	-2.781347e+02
4.500000e-07	-6.628712e-09	-1.088035e-09	-3.560395e+01	-2.778311e+02
4.600000e-07	-6.605298e-09	-1.078487e-09	-3.547818e+01	-2.774988e+02
4.700000e-07	-6.581348e-09	-1.073594e-09	-3.534955e+01	-2.771331e+02
4.800000e-07	-6.556978e-09	-1.080269e-09	-3.521865e+01	-2.767286e+02
4.900000e-07	-6.532191e-09	-1.076749e-09	-3.508551e+01	-2.762793e+02
5.000000e-07	-6.506952e-09	-1.070338e-09	-3.494995e+01	-2.757788e+02
5.100000e-07	-6.481282e-09	-1.075923e-09	-3.481207e+01	-2.752208e+02
5.200000e-07	-6.455087e-09	-1.073242e-09	-3.467137e+01	-2.745995e+02
5.300000e-07	-6.428294e-09	-1.059798e-09	-3.452747e+01	-2.739100e+02
5.400000e-07	-6.401015e-09	-1.058590e-09	-3.438094e+01	-2.731484e+02
5.500000e-07	-6.373324e-09	-1.058777e-09	-3.423221e+01	-2.723128e+02
5.600000e-07	-6.345173e-09	-1.048122e-09	-3.408101e+01	-2.714029e+02
5.700000e-07	-6.316588e-09	-1.044311e-09	-3.392747e+01	-2.704201e+02
5.800000e-07	-6.287597e-09	-1.046217e-09	-3.377176e+01	-2.693682e+02
5.900000e-07	-6.258115e-09	-1.038262e-09	-3.361340e+01	-2.682521e+02
6.000000e-07	-6.228088e-09	-1.030571e-09	-3.345213e+01	-2.670785e+02
6.100000e-07	-6.197565e-09	-1.029847e-09	-3.328818e+01	-2.658550e+02
6.200000e-07	-6.166554e-09	-1.023960e-09	-3.312161e+01	-2.645898e+02
6.300000e-07	-6.135019e-09	-1.014941e-09	-3.295224e+01	-2.632911e+02
6.400000e-07	-6.102953e-09	-1.012297e-09	-3.278000e+01	-2.619667e+02
6.500000e-07	-6.070400e-09	-1.009957e-09	-3.260516e+01	-2.606234e+02
6.600000e-07	-6.037437e-09	-1.003788e-09	-3.242811e+01	-2.592669e+02
6.700000e-07	-6.004095e-09	-9.996908e-10	-3.224902e+01	-2.579015e+02
6.800000e-07	-5.970372e-09	-9.958763e-10	-3.206789e+01	-2.565296e+02
6.900000e-07	-5.936241e-09	-9.884540e-10	-3.188456e+01	-2.551521e+02
7.000000e-07	-5.901704e-09	-9.818003e-10	-3.169906e+01	-2.537685e+02
7.100000e-07	-5.866789e-09	-9.776850e-10	-3.151152e+01	-2.523767e+02
7.200000e-07	-5.831504e-09	-9.723095e-10	-3.132200e+01	-2.509741e+02
7.300000e-07	-5.795797e-09	-9.665697e-10	-3.113021e+01	-2.495571e+02
7.400000e-07	-5.759619e-09	-9.621432e-10	-3.093590e+01	-2.481223e+02
7.500000e-07	-5.723007e-09	-9.571891e-10	-3.073925e+01	-2.466661e+02
7.600000e-07	-5.686011e-09	-9.512287e-10	-3.054054e+01	-2.451857e+02
7.700000e-07	-5.648614e-09	-9.457564e-10	-3.033967e+01	-2.436792e+02
7.800000e-07	-5.610805e-09	-9.395798e-10	-3.013659e+01	-2.421453e+02
7.900000e-07	-5.572600e-09	-9.326349e-10	-2.993139e+01	-2.405839e+02
8.000000e-07	-5.533983e-09	-9.269856e-10	-2.972396e+01	-2.389960e+02
8.100000e-07	-5.494891e-09	-9.219212e-10	-2.951399e+01	-2.373832e+02
8.200000e-07	-5.455328e-09	-9.155558e-10	-2.930150e+01	-2.357478e+02
8.300000e-07	-5.415367e-09	-9.085984e-10	-2.908686e+01	-2.340926e+02
8.400000e-07	-5.375036e-09	-9.018781e-10	-2.887024e+01	-2.324204e+02
8.500000e-07	-5.334333e-09	-8.955414e-10	-2.865161e+01	-2.307339e+02
8.600000e-07	-5.293276e-09	-8.900418e-10	-2.843109e+01	-2.290353e+02
8.700000e-07	-5.251902e-09	-8.848365e-10	-2.820886e+01	-2.273264e+02
8.800000e-07	-5.210192e-09	-8.784257e-10	-2.798483e+01	-2.256081e+02
8.900000e-07	-5.168068e-09	-8.707626e-10	-2.775857e+01	-2.238809e+02
9.000000e-07	-5.125503e-09	-8.630744e-10	-2.752995e+01	-2.221444e+02
9.100000e-07	-5.082538e-09	-8.557814e-10	-2.729918e+01	-2.203976e+02
9.200000e-07	-5.039200e-09	-8.486573e-10	-2.706640e+01	-2.186394e+02
9.300000e-07	-4.995490e-09	-8.415622e-10	-2.683163e+01	-2.168680e+02
9.400000e-07	-4.951424e-09	-8.348833e-10	-2.659494e+01	-2.150821e+02
9.500000e-07	-4.907020e-09	-8.289908e-10	-2.635644e+01	-2.132802e+02
9.600000e-07	-4.862295e-09	-8.233606e-10	-2.611621e+01	-2.114611e+02
9.700000e-07	-4.817231e-09	-8.165195e-10	-2.587417e+01	-2.096243e+02
9.800000e-07	-4.771739e-09	-8.081532e-10	-2.562982e+01	-2.077695e+02
9.900000e-07	-4.725769e-09	-7.995930e-10	-2.538291e+01	-2.058969e+02
1.000000e-06	-4.679399e-09	-7.921057e-10	-2.513385e+01	-2.040073e+02
1.010000e-06	-4.632727e-09	-7.854379e-10	-2.488316e+01	-2.021016e+02
1.020000e-06	-4.585750e-09	-7.786327e-10	-2.463084e+01	-2.001811e+02
1.030000e-06	-4.538447e-09	-7.712918e-10	-2.437677e+01	-1.982470e+02
1.040000e-06	-4.490833e-09	-7.640671e-10	-2.412103e+01	-1.963004e+02
1.050000e-06	-4.442915e-09	-7.571534e-10	-2.386365e+01	-1.943424e+02
1.060000e-06	-4.394660e-09	-7.497755e-10	-2.360447e+01	-1.923736e+02
1.070000e-06	-4.346037e-09	-7.415206e-10	-2.334330e+01	-1.903944e+02
1.080000e-06	-4.297029e-09	-7.328979e-10	-2.308007e+01	-1.884049e+02
1.090000e-06	-4.247662e-09	-7.247417e-10	-2.281492e+01	-1.864046e+02
1.100000e-06	-4.197998e-09	-7.174944e-10	-2.254816e+01	-1.843931e+02
1.110000e-06	-4.148079e-09	-7.106013e-10	-2.228004e+01	-1.823696e+02
1.120000e-06	-4.097897e-09	-7.031913e-10	-2.201050e+01	-1.803334e+02
1.130000e-06	-4.047437e-09	-6.949865e-10	-2.173947e+01	-1.782838e+02
1.140000e-06	-3.996718e-09	-6.865992e-10	-2.146705e+01	-1.762202e+02
1.150000e-06	-3.945757e-09	-6.785754e-10	-2.119333e+01	-1.741423e+02
1.160000e-06	-3.894532e-09	-6.706522e-10	-2.091819e+01	-1.720501e+02
1.170000e-06	-3.843013e-09	-6.625461e-10	-2.064147e+01	-1.699439e+02
1.180000e-06	-3.791174e-09	-6.542194e-10	-2.036304e+01	-1.678241e+02
1.190000e-06	-3.739007e-09	-6.459285e-10	-2.008284e+01	-1.656914e+02
1.200000e-06	-3.686528e-09	-6.379686e-10	-1.980097e+01	-1.635466e+02
1.210000e-06	-3.633773e-09	-6.300348e-10	-1.951761e+01	-1.613906e+02
1.220000e-06	-3.580777e-09	-6.215188e-10	-1.923296e+01	-1.592243e+02
1.230000e-06	-3.527543e-09	-6.127826e-10	-1.894703e+01	-1.570484e+02
1.240000e-06	-3.474068e-09	-6.043682e-10	-1.865981e+01	-1.548634e+02
1.250000e-06	-3.420358e-09	-5.960415e-10	-1.837132e+01	-1.526696e+02
1.260000e-06	-3.366429e-09	-5.878507e-10	-1.808166e+01	-1.504672e+02
1.270000e-06	-3.312278e-09	-5.792840e-10	-1.779080e+01	-1.482562e+02
1.280000e-06	-3.257891e-09	-5.699936e-10	-1.749868e+01	-1.460362e+02
1.290000e-06	-3.203263e-09	-5.611608e-10	-1.720527e+01	-1.438072e+02
1.300000e-06	-3.148392e-09	-5.529278e-10	-1.691055e+01	-1.415687e+02
1.310000e-06	-3.093255e-09	-5.443176e-10	-1.661440e+01	-1.393205e+02
1.320000e-06	-3.037825e-09	-5.355132e-10	-1.631667e+01	-1.370625e+02
1.330000e-06	-2.982107e-09	-5.270747e-10	-1.601740e+01	-1.347948e+02
1.340000e-06	-2.926131e-09	-5.183979e-10	-1.571674e+01	-1.325174e+02
1.350000e-06	-2.869918e-09	-5.095585e-10	-1.541482e+01	-1.302308e+02
1.360000e-06	-2.813482e-09	-5.010146e-10	-1.511169e+01	-1.279354e+02
1.370000e-06	-2.756826e-09	-4.919773e-10	-1.480738e+01	-1.256317e+02
1.380000e-06	-2.699945e-09	-4.822204e-10	-1.450186e+01	-1.233203e+02
1.390000e-06	-2.642852e-09	-4.730047e-10	-1.419521e+01	-1.210015e+02
1.400000e-06	-2.585570e-09	-4.645475e-10	-1.388754e+01	-1.186758e+02
1.410000e-06	-2.528096e-09	-4.556806e-10	-1.357883e+01	-1.163432e+02
1.420000e-06	-2.470423e-09	-4.462744e-10	-1.326906e+01	-1.140038e+02
1.430000e-06	-2.412558e-09	-4.368313e-10	-1.295826e+01	-1.116572e+02
1.440000e-06	-2.354517e-09	-4.274081e-10	-1.264651e+01	-1.093029e+02
1.450000e-06	-2.296312e-09	-4.183659e-10	-1.233388e+01	-1.069406e+02
1.460000e-06	-2.237952e-09	-4.097925e-10	-1.202042e+01	-1.045694e+02
1.470000e-06	-2.179436e-09	-4.007425e-10	-1.170612e+01	-1.021887e+02
1.480000e-06	-2.120765e-09	-3.908365e-10	-1.139099e+01	-9.979821e+01
1.490000e-06	-2.061944e-09	-3.809861e-10	-1.107505e+01	-9.739746e+01
1.500000e-06	-2.002987e-09	-3.715883e-10	-1.075838e+01	-9.498648e+01
1.510000e-06	-1.943907e-09	-3.620818e-10	-1.044105e+01	-9.256552e+01
1.520000e-06	-1.884718e-09	-3.524063e-10	-1.012314e+01	-9.013516e+01
1.530000e-06	-1.825429e-09	-3.429191e-10	-9.804685e+00	-8.769626e+01
1.540000e-06	-1.766045e-09	-3.339233e-10	-9.485721e+00	-8.524991e+01
1.550000e-06	-1.706565e-09	-3.252234e-10	-9.166244e+00	-8.279734e+01
1.560000e-06	-1.646985e-09	-3.161504e-10	-8.846231e+00	-8.033984e+01
1.570000e-06	-1.587300e-09	-3.061159e-10	-8.525655e+00	-7.787865e+01
1.580000e-06	-1.527504e-09	-2.956006e-10	-8.204479e+00	-7.541485e+01
1.590000e-06	-1.467592e-09	-2.855797e-10	-7.882682e+00	-7.294926e+01
1.600000e-06	-1.407565e-09	-2.762447e-10	-7.560262e+00	-7.048239e+01
1.610000e-06	-1.347422e-09	-2.671464e-10	-7.237228e+00	-6.801443e+01
1.620000e-06	-1.287167e-09	-2.576406e-10	-6.913583e+00	-6.554519e+01
1.630000e-06	-1.226803e-09	-2.478059e-10	-6.589363e+00	-6.307420e+01
1.640000e-06	-1.166346e-09	-2.382362e-10	-6.264638e+00	-6.060076e+01
1.650000e-06	-1.105810e-09	-2.288441e-10	-5.939487e+00	-5.812401e+01
1.660000e-06	-1.045209e-09	-2.191515e-10	-5.613989e+00	-5.564308e+01
1.670000e-06	-9.845519e-10	-2.091136e-10	-5.288189e+00	-5.315716e+01
1.680000e-06	-9.238381e-10	-1.991067e-10	-4.962085e+00	-5.066564e+01
1.690000e-06	-8.630603e-10	-1.895462e-10	-4.635637e+00	-4.816816e+01
1.700000e-06	-8.022128e-10	-1.802467e-10	-4.308815e+00	-4.566471e+01
1.710000e-06	-7.412962e-10	-1.706868e-10	-3.981622e+00	-4.315560e+01
1.720000e-06	-6.803100e-10	-1.605505e-10	-3.654054e+00	-4.064149e+01
1.730000e-06	-6.192537e-10	-1.501198e-10	-3.326111e+00	-3.812329e+01
1.740000e-06	-5.581330e-10	-1.400979e-10	-2.997822e+00	-3.560214e+01
1.750000e-06	-4.969566e-10	-1.305645e-10	-2.669233e+00	-3.307926e+01
1.760000e-06	-4.357294e-10	-1.208987e-10	-2.340372e+00	-3.055588e+01
1.770000e-06	-3.744587e-10	-1.108177e-10	-2.011277e+00	-2.803311e+01
1.780000e-06	-3.131561e-10	-1.007321e-10	-1.682011e+00	-2.551185e+01
1.790000e-06	-2.518370e-10	-9.098975e-11	-1.352656e+00	-2.299273e+01
1.800000e-06	-1.905184e-10	-8.129997e-11	-1.023304e+00	-2.047606e+01
1.810000e-06	-1.292092e-10	-7.128205e-11	-6.940021e-01	-1.796183e+01
1.820000e-06	-6.791142e-11	-6.120473e-11	-3.647615e-01	-1.544976e+01
1.830000e-06	-6.620692e-12	-5.154818e-11	-3.555909e-02	-1.293933e+01
1.840000e-06	5.466946e-11	-4.220205e-11	2.936403e-01	-1.042988e+01
1.850000e-06	1.159609e-10	-3.266749e-11	6.228464e-01	-7.920705e+00
1.860000e-06	1.772542e-10	-2.260733e-11	9.520627e-01	-5.411168e+00
1.870000e-06	2.385474e-10	-1.227753e-11	1.281279e+00	-2.900771e+00
1.880000e-06	2.998334e-10	-2.212875e-12	1.610456e+00	-3.892403e-01
1.890000e-06	3.611022e-10	7.459828e-12	1.939541e+00	2.123433e+00
1.900000e-06	4.223453e-10	1.708418e-11	2.268487e+00	4.636976e+00
1.910000e-06	4.835546e-10	2.701923e-11	2.597252e+00	7.150858e+00
1.920000e-06	5.447169e-10	3.700099e-11	2.925765e+00	9.664340e+00
1.930000e-06	6.058194e-10	4.667610e-11	3.253957e+00	1.217655e+01
1.940000e-06	6.668517e-10	5.636938e-11	3.581771e+00	1.468658e+01
1.950000e-06	7.278034e-10	6.624628e-11	3.909152e+00	1.719357e+01
1.960000e-06	7.886708e-10	7.607468e-11	4.236081e+00	1.969683e+01
1.970000e-06	8.494577e-10	8.587868e-11	4.562578e+00	2.219587e+01
1.980000e-06	9.101732e-10	9.550265e-11	4.888691e+00	2.469048e+01
1.990000e-06	9.708247e-10	1.047922e-10	5.214461e+00	2.718077e+01
2.000000e-06	1.031412e-09	1.143866e-10	5.539886e+00	2.966710e+01
2.010000e-06	1.091932e-09	1.246860e-10	5.864947e+00	3.215007e+01
2.020000e-06	1.152378e-09	1.349864e-10	6.189612e+00	3.463045e+01
2.030000e-06	1.212741e-09	1.447507e-10	6.513834e+00	3.710907e+01
2.040000e-06	1.273015e-09	1.540305e-10	6.837575e+00	3.958671e+01
2.050000e-06	1.333192e-09	1.632231e-10	7.160800e+00	4.206403e+01
2.060000e-06	1.393266e-09	1.728396e-10	7.483463e+00	4.454146e+01
2.070000e-06	1.453226e-09	1.827582e-10	7.805522e+00	4.701913e+01
2.080000e-06	1.513069e-09	1.924995e-10	8.126945e+00	4.949685e+01
2.090000e-06	1.572792e-09	2.020417e-10	8.447728e+00	5.197409e+01
2.100000e-06	1.632400e-09	2.118033e-10	8.767895e+00	5.445004e+01
2.110000e-06	1.691903e-09	2.217276e-10	9.087498e+00	5.692364e+01
2.120000e-06	1.751311e-09	2.314525e-10	9.406586e+00	5.939369e+01
2.130000e-06	1.810625e-09	2.409576e-10	9.725175e+00	6.185893e+01
2.140000e-06	1.869842e-09	2.503474e-10	1.004324e+01	6.431816e+01
2.150000e-06	1.928951e-09	2.599326e-10	1.036073e+01	6.677033e+01
2.160000e-06	1.987941e-09	2.697076e-10	1.067757e+01	6.921463e+01
2.170000e-06	2.046798e-09	2.791751e-10	1.099370e+01	7.165051e+01
2.180000e-06	2.105512e-09	2.884135e-10	1.130906e+01	7.407772e+01
2.190000e-06	2.164074e-09	2.979704e-10	1.162361e+01	7.649633e+01
2.200000e-06	2.222478e-09	3.078050e-10	1.193731e+01	7.890662e+01
2.210000e-06	2.280715e-09	3.173908e-10	1.225011e+01	8.130906e+01
2.220000e-06	2.338772e-09	3.268602e-10	1.256195e+01	8.370422e+01
2.230000e-06	2.396638e-09	3.364633e-10	1.287275e+01	8.609265e+01
2.240000e-06	2.454305e-09	3.456303e-10	1.318249e+01	8.847479e+01
2.250000e-06	2.511775e-09	3.542743e-10	1.349117e+01	9.085093e+01
2.260000e-06	2.569057e-09	3.629950e-10	1.379884e+01	9.322110e+01
2.270000e-06	2.626153e-09	3.719328e-10	1.410552e+01	9.558509e+01
2.280000e-06	2.683063e-09	3.812778e-10	1.441119e+01	9.794240e+01
2.290000e-06	2.739779e-09	3.913297e-10	1.471582e+01	1.002923e+02
2.300000e-06	2.796295e-09	4.015611e-10	1.501938e+01	1.026339e+02
2.310000e-06	2.852611e-09	4.109896e-10	1.532186e+01	1.049663e+02
2.320000e-06	2.908718e-09	4.195444e-10	1.562322e+01	1.072884e+02
2.330000e-06	2.964595e-09	4.276782e-10	1.592334e+01	1.095992e+02
2.340000e-06	3.020213e-09	4.357407e-10	1.622208e+01	1.118981e+02
2.350000e-06	3.075552e-09	4.444916e-10	1.651932e+01	1.141845e+02
2.360000e-06	3.130611e-09	4.538791e-10	1.681505e+01	1.164582e+02
2.370000e-06	3.185399e-09	4.634778e-10	1.710932e+01	1.187190e+02
2.380000e-06	3.239926e-09	4.732744e-10	1.740220e+01	1.209671e+02
2.390000e-06	3.294206e-09	4.826206e-10	1.769374e+01	1.232031e+02
2.400000e-06	3.348255e-09	4.907660e-10	1.798405e+01	1.254273e+02
2.410000e-06	3.402081e-09	4.981136e-10	1.827316e+01	1.276404e+02
2.420000e-06	3.455683e-09	5.058437e-10	1.856106e+01	1.298428e+02
2.430000e-06	3.509051e-09	5.146004e-10	1.884771e+01	1.320348e+02
2.440000e-06	3.562186e-09	5.241272e-10	1.913311e+01	1.342168e+02
2.450000e-06	3.615091e-09	5.334867e-10	1.941727e+01	1.363886e+02
2.460000e-06	3.667757e-09	5.421018e-10	1.970015e+01	1.385500e+02
2.470000e-06	3.720147e-09	5.502704e-10	1.998155e+01	1.407006e+02
2.480000e-06	3.772227e-09	5.584274e-10	2.026127e+01	1.428396e+02
2.490000e-06	3.823982e-09	5.665365e-10	2.053926e+01	1.449666e+02
2.500000e-06	3.875421e-09	5.745642e-10	2.081555e+01	1.470806e+02
2.510000e-06	3.926563e-09	5.824982e-10	2.109024e+01	1.491812e+02
2.520000e-06	3.977429e-09	5.903113e-10	2.136345e+01	1.512678e+02
2.530000e-06	4.028039e-09	5.984233e-10	2.163528e+01	1.533401e+02
2.540000e-06	4.078387e-09	6.069415e-10	2.190571e+01	1.553984e+02
2.550000e-06	4.128471e-09	6.151183e-10	2.217472e+01	1.574427e+02
2.560000e-06	4.178304e-09	6.226452e-10	2.244239e+01	1.594736e+02
2.570000e-06	4.227891e-09	6.302624e-10	2.270873e+01	1.614920e+02
2.580000e-06	4.277202e-09	6.381968e-10	2.297358e+01	1.634985e+02
2.590000e-06	4.326179e-09	6.461579e-10	2.323665e+01	1.654942e+02
2.600000e-06	4.374781e-09	6.540088e-10	2.349769e+01	1.674798e+02
2.610000e-06	4.423006e-09	6.613608e-10	2.375672e+01	1.694560e+02
2.620000e-06	4.470881e-09	6.683894e-10	2.401387e+01	1.714231e+02
2.630000e-06	4.518437e-09	6.757771e-10	2.426930e+01	1.733814e+02
2.640000e-06	4.565687e-09	6.834745e-10	2.452309e+01	1.753304e+02
2.650000e-06	4.612622e-09	6.911789e-10	2.477518e+01	1.772697e+02
2.660000e-06	4.659230e-09	6.988082e-10	2.502552e+01	1.791984e+02
2.670000e-06	4.705484e-09	7.064248e-10	2.527396e+01	1.811154e+02
2.680000e-06	4.751339e-09	7.139292e-10	2.552025e+01	1.830194e+02
2.690000e-06	4.796768e-09	7.211444e-10	2.576426e+01	1.849091e+02
2.700000e-06	4.841791e-09	7.282100e-10	2.600609e+01	1.867833e+02
2.710000e-06	4.886455e-09	7.351380e-10	2.624598e+01	1.886409e+02
2.720000e-06	4.930789e-09	7.420439e-10	2.648411e+01	1.904810e+02
2.730000e-06	4.974795e-09	7.491859e-10	2.672047e+01	1.923031e+02
2.740000e-06	5.018460e-09	7.564819e-10	2.695500e+01	1.941069e+02
2.750000e-06	5.061800e-09	7.635885e-10	2.718779e+01	1.958926e+02
2.760000e-06	5.104820e-09	7.705314e-10	2.741886e+01	1.976605e+02
2.770000e-06	5.147469e-09	7.774656e-10	2.764794e+01	1.994111e+02
2.780000e-06	5.189679e-09	7.839893e-10	2.787466e+01	2.011452e+02
2.790000e-06	5.231449e-09	7.901595e-10	2.809901e+01	2.028635e+02
2.800000e-06	5.272828e-09	7.966075e-10	2.832126e+01	2.045668e+02
2.810000e-06	5.313850e-09	8.032104e-10	2.854160e+01	2.062556e+02
2.820000e-06	5.354514e-09	8.098202e-10	2.876001e+01	2.079304e+02
2.830000e-06	5.394819e-09	8.165889e-10	2.897650e+01	2.095913e+02
2.840000e-06	5.434775e-09	8.231343e-10	2.919111e+01	2.112383e+02
2.850000e-06	5.474346e-09	8.293503e-10	2.940365e+01	2.128712e+02
2.860000e-06	5.513459e-09	8.354927e-10	2.961373e+01	2.144896e+02
2.870000e-06	5.552088e-09	8.414270e-10	2.982121e+01	2.160930e+02
2.880000e-06	5.590281e-09	8.470128e-10	3.002635e+01	2.176808e+02
2.890000e-06	5.628078e-09	8.526340e-10	3.022937e+01	2.192523e+02
2.900000e-06	5.665489e-09	8.587796e-10	3.043031e+01	2.208072e+02
